# energy grid [eV]     ieps_x  ieps_y  ieps_z
#
    0.001000000  245.010141219  207.941717393  317.343953961
    0.051081803  181.996781085  165.864069389  236.407516617
    0.101163606  131.509584905  129.264736153  171.140840587
    0.151245409  104.120466082  107.156167671  135.286819085
    0.201327212   86.767516044   91.943230706  112.272599475
    0.251409015   74.597537921   80.616880911   95.954209153
    0.301490818   65.509780159   71.777564733   83.664526199
    0.351572621   58.429994312   64.656983134   74.030425503
    0.401654424   52.741252646   58.784900210   66.257099535
    0.451736227   48.059554222   53.852207574   59.845987006
    0.501818030   44.131708755   49.645500781   54.465815565
    0.551899833   40.783461996   46.012091730   49.886681744
    0.601981636   37.890826247   42.839679336   45.943439437
    0.652063439   35.363173687   40.043794444   42.514058913
    0.702145242   33.132750951   37.559685236   39.506203897
    0.752227045   31.147912391   35.336886880   36.848577961
    0.802308848   29.368611247   33.335486081   34.485163163
    0.852390651   27.763315191   31.523492999   32.371276726
    0.902472454   26.306848995   29.874956722   30.470805693
    0.952554257   24.978856582   28.368591355   28.754225262
    1.002636060   23.762686112   26.986759531   27.197150830
    1.052717863   22.644569524   25.714710254   25.779261328
    1.102799666   21.613010519   24.540000381   24.483485856
    1.152881469   20.658322263   23.452050477   23.295380406
    1.202963272   19.772274129   22.441800177   22.202644036
    1.253045075   18.947818793   21.501438069   21.194738894
    1.303126878   18.178879256   20.624187974   20.262588648
    1.353208681   17.460181007   19.804138332   19.398336843
    1.403290484   16.787118549   19.036104843   18.595151605
    1.453372287   16.155648326   18.315518992   17.847066550
    1.503454090   15.562202107   17.638336901   17.148850262
    1.553535893   15.003616375   17.000964249   16.495898507
    1.603617696   14.477074330   16.400194027   15.884144679
    1.653699499   13.980057904   15.833154593   15.309984990
    1.703781302   13.510307805   15.297266060   14.770215648
    1.753863105   13.065790030   14.790203477   14.261979858
    1.803944908   12.644667617   14.309865572   13.782722904
    1.854026711   12.245276700   13.854348087   13.330153929
    1.904108514   11.866106088   13.421920919   12.902213281
    1.954190317   11.505779763   13.011008436   12.497044512
    2.004272120   11.163041815   12.620172458   12.112970290
    2.054353923   10.836743399   12.248097477   11.748471602
    2.104435726   10.525831417   11.893577777   11.402169742
    2.154517529   10.229338640   11.555506178   11.072810667
    2.204599332    9.946375058   11.232864142   10.759251374
    2.254681135    9.676120283   10.924713080   10.460447994
    2.304762938    9.417816853   10.630186663   10.175445370
    2.354844741    9.170764303   10.348484021    9.903367902
    2.404926544    8.934313916   10.078863700    9.643411496
    2.455008347    8.707864043    9.820638283    9.394836452
    2.505090150    8.490855936    9.573169594    9.156961180
    2.555171953    8.282770018    9.335864396    8.929156637
    2.605253756    8.083122544    9.108170552    8.710841371
    2.655335559    7.891462594    8.889573555    8.501477126
    2.705417362    7.707369375    8.679593424    8.300564916
    2.755499165    7.530449776    8.477781890    8.107641513
    2.805580968    7.360336169    8.283719857    7.922276312
    2.855662771    7.196684409    8.097015107    7.744068513
    2.905744574    7.039172023    7.917300211    7.572644589
    2.955826377    6.887496563    7.744230641    7.407656011
    3.005908180    6.741374110    7.577483043    7.248777196
    3.055989983    6.600537904    7.416753667    7.095703647
    3.106071786    6.464737098    7.261756938    6.948150282
    3.156153589    6.333735620    7.112224140    6.805849909
    3.206235392    6.207311121    6.967902226    6.668551852
    3.256317195    6.085254024    6.828552709    6.536020692
    3.306398998    5.967366643    6.693950665    6.408035132
    3.356480801    5.853462371    6.563883798    6.284386953
    3.406562604    5.743364941    6.438151597    6.164880068
    3.456644407    5.636907738    6.316564544    6.049329654
    3.506726210    5.533933168    6.198943394    5.937561357
    3.556808013    5.434292072    6.085118510    5.829410567
    3.606889816    5.337843188    5.974929243    5.724721751
    3.656971619    5.244452653    5.868223362    5.623347836
    3.707053422    5.153993539    5.764856529    5.525149650
    3.757135225    5.066345422    5.664691808    5.429995402
    3.807217028    4.981393991    5.567599209    5.337760200
    3.857298831    4.899030671    5.473455271    5.248325614
    3.907380634    4.819152283    5.382142669    5.161579264
    3.957462437    4.741660728    5.293549848    5.077414447
    4.007544240    4.666462681    5.207570687    4.995729782
    4.057626043    4.593469322    5.124104181    4.916428891
    4.107707846    4.522596075    5.043054149    4.839420094
    4.157789649    4.453762364    4.964328958    4.764616136
    4.207871452    4.386891391    4.887841266    4.691933921
    4.257953255    4.321909925    4.813507785    4.621294275
    4.308035058    4.258748102    4.741249054    4.552621722
    4.358116861    4.197339247    4.670989233    4.485844268
    4.408198664    4.137619693    4.602655903    4.420893216
    4.458280467    4.079528629    4.536179884    4.357702973
    4.508362270    4.023007938    4.471495063    4.296210888
    4.558444073    3.968002063    4.408538232    4.236357088
    4.608525876    3.914457870    4.347248935    4.178084329
    4.658607679    3.862324521    4.287569328    4.121337859
    4.708689482    3.811553359    4.229444041    4.066065285
    4.758771285    3.762097796    4.172820055    4.012216451
    4.808853088    3.713913208    4.117646585    3.959743324
    4.858934891    3.666956836    4.063874963    3.908599881
    4.909016694    3.621187695    4.011458537    3.858742013
    4.959098497    3.576566487    3.960352570    3.810127429
    5.009180301    3.533055516    3.910514149    3.762715560
    5.059262104    3.490618613    3.861902093    3.716467481
    5.109343907    3.449221061    3.814476872    3.671345829
    5.159425710    3.408829529    3.768200530    3.627314727
    5.209507513    3.369412001    3.723036607    3.584339711
    5.259589316    3.330937717    3.678950070    3.542387668
    5.309671119    3.293377118    3.635907250    3.501426770
    5.359752922    3.256701784    3.593875774    3.461426413
    5.409834725    3.220884387    3.552824509    3.422357163
    5.459916528    3.185898638    3.512723503    3.384190700
    5.509998331    3.151719242    3.473543936    3.346899769
    5.560080134    3.118321853    3.435258065    3.310458133
    5.610161937    3.085683031    3.397839178    3.274840525
    5.660243740    3.053780203    3.361261547    3.240022607
    5.710325543    3.022591624    3.325500389    3.205980928
    5.760407346    2.992096343    3.290531819    3.172692889
    5.810489149    2.962274164    3.256332816    3.140136698
    5.860570952    2.933105619    3.222881184    3.108291345
    5.910652755    2.904571935    3.190155517    3.077136561
    5.960734558    2.876655002    3.158135165    3.046652793
    6.010816361    2.849337350    3.126800204    3.016821169
    6.060898164    2.822602116    3.096131403    2.987623471
    6.110979967    2.796433026    3.066110200    2.959042110
    6.161061770    2.770814365    3.036718668    2.931060098
    6.211143573    2.745730957    3.007939495    2.903661024
    6.261225376    2.721168141    2.979755956    2.876829030
    6.311307179    2.697111754    2.952151888    2.850548791
    6.361388982    2.673548106    2.925111672    2.824805492
    6.411470785    2.650463965    2.898620207    2.799584807
    6.461552588    2.627846538    2.872662892    2.774872884
    6.511634391    2.605683452    2.847225606    2.750656318
    6.561716194    2.583962739    2.822294688    2.726922144
    6.611797997    2.562672821    2.797856921    2.703657813
    6.661879800    2.541802493    2.773899512    2.680851177
    6.711961603    2.521340910    2.750410080    2.658490476
    6.762043406    2.501277574    2.727376636    2.636564323
    6.812125209    2.481602318    2.704787573    2.615061686
    6.862207012    2.462305298    2.682631645    2.593971880
    6.912288815    2.443376975    2.660897961    2.573284553
    6.962370618    2.424808110    2.639575966    2.552989669
    7.012452421    2.406589747    2.618655432    2.533077504
    7.062534224    2.388713208    2.598126443    2.513538628
    7.112616027    2.371170080    2.577979387    2.494363898
    7.162697830    2.353952203    2.558204944    2.475544446
    7.212779633    2.337051667    2.538794072    2.457071670
    7.262861436    2.320460798    2.519738004    2.438937226
    7.312943239    2.304172150    2.501028230    2.421133015
    7.363025042    2.288178500    2.482656495    2.403651177
    7.413106845    2.272472838    2.464614785    2.386484083
    7.463188648    2.257048358    2.446895322    2.369624326
    7.513270451    2.241898455    2.429490555    2.353064714
    7.563352254    2.227016713    2.412393149    2.336798260
    7.613434057    2.212396904    2.395595983    2.320818181
    7.663515860    2.198032976    2.379092137    2.305117883
    7.713597663    2.183919051    2.362874891    2.289690962
    7.763679466    2.170049418    2.346937712    2.274531193
    7.813761269    2.156418527    2.331274254    2.259632525
    7.863843072    2.143020982    2.315878346    2.244989078
    7.913924875    2.129851541    2.300743990    2.230595132
    7.964006678    2.116905105    2.285865355    2.216445127
    8.014088481    2.104176716    2.271236769    2.202533654
    8.064170284    2.091661553    2.256852716    2.188855453
    8.114252087    2.079354925    2.242707830    2.175405406
    8.164333890    2.067252271    2.228796892    2.162178533
    8.214415693    2.055349152    2.215114821    2.149169988
    8.264497496    2.043641247    2.201656675    2.136375056
    8.314579299    2.032124353    2.188417641    2.123789145
    8.364661102    2.020794377    2.175393038    2.111407785
    8.414742905    2.009647336    2.162578303    2.099226626
    8.464824708    1.998679349    2.149968999    2.087241430
    8.514906511    1.987886641    2.137560799    2.075448068
    8.564988314    1.977265531    2.125349493    2.063842521
    8.615070117    1.966812436    2.113330978    2.052420872
    8.665151920    1.956523865    2.101501257    2.041179305
    8.715233723    1.946396416    2.089856435    2.030114103
    8.765315526    1.936426775    2.078392716    2.019221640
    8.815397329    1.926611711    2.067106402    2.008498385
    8.865479132    1.916948077    2.055993887    1.997940894
    8.915560935    1.907432801    2.045051656    1.987545811
    8.965642738    1.898062892    2.034276280    1.977309862
    9.015724541    1.888835433    2.023664418    1.967229855
    9.065806344    1.879747576    2.013212811    1.957302678
    9.115888147    1.870796548    2.002918279    1.947525293
    9.165969950    1.861979640    1.992777721    1.937894738
    9.216051753    1.853294212    1.982788112    1.928408124
    9.266133556    1.844737688    1.972946499    1.919062631
    9.316215359    1.836307553    1.963250001    1.909855506
    9.366297162    1.828001352    1.953695808    1.900784063
    9.416378965    1.819816693    1.944281174    1.891845682
    9.466460768    1.811751236    1.935003422    1.883037802
    9.516542571    1.803802701    1.925859935    1.874357926
    9.566624374    1.795968858    1.916848161    1.865803614
    9.616706177    1.788247532    1.907965606    1.857372484
    9.666787980    1.780636600    1.899209835    1.849062209
    9.716869783    1.773133985    1.890578469    1.840870516
    9.766951586    1.765737661    1.882069186    1.832795187
    9.817033389    1.758445649    1.873679715    1.824834052
    9.867115192    1.751256013    1.865407839    1.816984993
    9.917196995    1.744166864    1.857251391    1.809245939
    9.967278798    1.737176356    1.849208254    1.801614868
   10.017360601    1.730282683    1.841276358    1.794089802
   10.067442404    1.723484080    1.833453681    1.786668808
   10.117524207    1.716778825    1.825738245    1.779349998
   10.167606010    1.710165232    1.818128118    1.772131525
   10.217687813    1.703641651    1.810621410    1.765011583
   10.267769616    1.697206472    1.803216272    1.757988406
   10.317851419    1.690858120    1.795910897    1.751060267
   10.367933222    1.684595053    1.788703518    1.744225479
   10.418015025    1.678415763    1.781592406    1.737482389
   10.468096828    1.672318778    1.774575870    1.730829381
   10.518178631    1.666302654    1.767652257    1.724264876
   10.568260434    1.660365981    1.760819946    1.717787328
   10.618342237    1.654507377    1.754077355    1.711395222
   10.668424040    1.648725494    1.747422934    1.705087079
   10.718505843    1.643019007    1.740855166    1.698861450
   10.768587646    1.637386625    1.734372567    1.692716917
   10.818669449    1.631827080    1.727973684    1.686652092
   10.868751252    1.626339132    1.721657095    1.680665616
   10.918833055    1.620921570    1.715421407    1.674756160
   10.968914858    1.615573203    1.709265257    1.668922420
   11.018996661    1.610292870    1.703187310    1.663163123
   11.069078464    1.605079431    1.697186259    1.657477020
   11.119160267    1.599931770    1.691260824    1.651862888
   11.169242070    1.594848796    1.685409750    1.646319529
   11.219323873    1.589829438    1.679631811    1.640845771
   11.269405676    1.584872648    1.673925802    1.635440465
   11.319487479    1.579977399    1.668290546    1.630102485
   11.369569282    1.575142686    1.662724887    1.624830729
   11.419651085    1.570367523    1.657227695    1.619624117
   11.469732888    1.565650944    1.651797860    1.614481589
   11.519814691    1.560992002    1.646434297    1.609402109
   11.569896494    1.556389771    1.641135940    1.604384660
   11.619978297    1.551843342    1.635901746    1.599428246
   11.670060100    1.547351823    1.630730692    1.594531889
   11.720141903    1.542914340    1.625621775    1.589694634
   11.770223706    1.538530039    1.620574013    1.584915540
   11.820305509    1.534198079    1.615586440    1.580193689
   11.870387312    1.529917638    1.610658114    1.575528178
   11.920469115    1.525687908    1.605788106    1.570918123
   11.970550918    1.521508098    1.600975508    1.566362656
   12.020632721    1.517377433    1.596219428    1.561860927
   12.070714524    1.513295150    1.591518993    1.557412101
   12.120796327    1.509260503    1.586873346    1.553015360
   12.170878130    1.505272761    1.582281644    1.548669902
   12.220959933    1.501331204    1.577743064    1.544374940
   12.271041736    1.497435129    1.573256795    1.540129700
   12.321123539    1.493583842    1.568822043    1.535933425
   12.371205342    1.489776667    1.564438030    1.531785372
   12.421287145    1.486012937    1.560103990    1.527684812
   12.471368948    1.482292000    1.555819173    1.523631027
   12.521450751    1.478613213    1.551582843    1.519623316
   12.571532554    1.474975948    1.547394276    1.515660988
   12.621614357    1.471379586    1.543252764    1.511743368
   12.671696160    1.467823523    1.539157609    1.507869791
   12.721777963    1.464307162    1.535108128    1.504039605
   12.771859766    1.460829920    1.531103650    1.500252170
   12.821941569    1.457391222    1.527143515    1.496506856
   12.872023372    1.453990506    1.523227077    1.492803048
   12.922105175    1.450627219    1.519353700    1.489140138
   12.972186978    1.447300818    1.515522760    1.485517533
   13.022268781    1.444010768    1.511733644    1.481934648
   13.072350584    1.440756547    1.507985751    1.478390908
   13.122432387    1.437537641    1.504278490    1.474885752
   13.172514190    1.434353543    1.500611279    1.471418624
   13.222595993    1.431203758    1.496983548    1.467988982
   13.272677796    1.428087797    1.493394738    1.464596291
   13.322759599    1.425005183    1.489844298    1.461240027
   13.372841402    1.421955444    1.486331686    1.457919673
   13.422923205    1.418938119    1.482856372    1.454634725
   13.473005008    1.415952752    1.479417834    1.451384683
   13.523086811    1.412998898    1.476015557    1.448169060
   13.573168614    1.410076117    1.472649039    1.444987374
   13.623250417    1.407183979    1.469317783    1.441839154
   13.673332220    1.404322060    1.466021303    1.438723935
   13.723414023    1.401489943    1.462759119    1.435641262
   13.773495826    1.398687220    1.459530761    1.432590686
   13.823577629    1.395913486    1.456335767    1.429571765
   13.873659432    1.393168348    1.453173682    1.426584069
   13.923741235    1.390451416    1.450044059    1.423627169
   13.973823038    1.387762308    1.446946458    1.420700648
   14.023904841    1.385100648    1.443880447    1.417804095
   14.073986644    1.382466066    1.440845601    1.414937104
   14.124068447    1.379858199    1.437841503    1.412099277
   14.174150250    1.377276689    1.434867740    1.409290223
   14.224232053    1.374721185    1.431923910    1.406509558
   14.274313856    1.372191342    1.429009615    1.403756902
   14.324395659    1.369686818    1.426124464    1.401031885
   14.374477462    1.367207280    1.423268072    1.398334138
   14.424559265    1.364752399    1.420440061    1.395663304
   14.474641068    1.362321852    1.417640059    1.393019026
   14.524722871    1.359915319    1.414867700    1.390400958
   14.574804674    1.357532488    1.412122623    1.387808756
   14.624886477    1.355173050    1.409404476    1.385242082
   14.674968280    1.352836703    1.406712908    1.382700606
   14.725050083    1.350523148    1.404047577    1.380184000
   14.775131886    1.348232092    1.401408146    1.377691944
   14.825213689    1.345963246    1.398794282    1.375224122
   14.875295492    1.343716325    1.396205658    1.372780221
   14.925377295    1.341491050    1.393641954    1.370359938
   14.975459098    1.339287146    1.391102851    1.367962969
   15.025540902    1.337104342    1.388588039    1.365589019
   15.075622705    1.334942371    1.386097210    1.363237796
   15.125704508    1.332800970    1.383630063    1.360909012
   15.175786311    1.330679881    1.381186301    1.358602385
   15.225868114    1.328578849    1.378765631    1.356317637
   15.275949917    1.326497625    1.376367765    1.354054494
   15.326031720    1.324435962    1.373992419    1.351812685
   15.376113523    1.322393616    1.371639314    1.349591946
   15.426195326    1.320370349    1.369308175    1.347392014
   15.476277129    1.318365926    1.366998731    1.345212633
   15.526358932    1.316380114    1.364710716    1.343053549
   15.576440735    1.314412685    1.362443868    1.340914512
   15.626522538    1.312463415    1.360197926    1.338795276
   15.676604341    1.310532083    1.357972638    1.336695600
   15.726686144    1.308618469    1.355767752    1.334615244
   15.776767947    1.306722360    1.353583021    1.332553975
   15.826849750    1.304843544    1.351418202    1.330511561
   15.876931553    1.302981813    1.349273055    1.328487773
   15.927013356    1.301136961    1.347147344    1.326482388
   15.977095159    1.299308787    1.345040837    1.324495185
   16.027176962    1.297497090    1.342953304    1.322525945
   16.077258765    1.295701676    1.340884519    1.320574454
   16.127340568    1.293922350    1.338834260    1.318640502
   16.177422371    1.292158922    1.336802309    1.316723879
   16.227504174    1.290411204    1.334788448    1.314824380
   16.277585977    1.288679012    1.332792465    1.312941804
   16.327667780    1.286962163    1.330814152    1.311075951
